Wavelength,Excitation,Wavelength,Emission
300,13.60913341,300,0
301,13.42682376,301,0
302,13.2597896,302,0
303,13.12031773,303,0
304,12.92173636,304,0
305,12.74009086,305,0
306,12.61224164,306,0
307,12.45782636,307,0
308,12.47177355,308,0
309,12.43956219,309,0
310,12.44952447,310,0
311,12.50531321,311,0
312,12.50863397,312,0
313,12.59829446,313,0
314,12.67533606,314,0
315,12.77628713,315,0
316,12.93435524,316,0
317,13.04958557,317,0
318,13.19038574,318,0
319,13.3836539,319,0
320,13.63603156,320,0
321,13.95017534,321,0
322,14.27428139,322,0
323,14.60502896,323,0
324,15.02742947,324,0
325,15.50960363,325,0
326,16.0083816,326,0
327,16.59947665,327,0
328,17.11087349,328,0
329,17.65979491,329,0
330,18.31962967,330,0
331,18.91769832,331,0
332,19.56856703,332,0
333,20.24633388,333,0
334,21.03933107,334,0
335,21.81173955,335,0
336,22.44633654,336,0
337,23.19118272,337,0
338,24.07616492,338,0
339,24.85853568,339,0
340,25.64123851,340,0
341,26.46677913,341,0
342,27.40290101,342,0
343,28.21416237,343,0
344,29.03007279,344,0
345,29.93331916,345,0
346,30.89135806,346,0
347,31.79194782,347,0
348,32.62379789,348,0
349,33.48121779,349,0
350,34.42962648,350,0
351,35.38434462,351,0
352,36.33607407,352,0
353,37.23533553,353,0
354,38.18241592,354,0
355,39.17764731,355,0
356,40.15195792,356,0
357,41.04358164,357,0
358,41.95546198,358,0
359,42.96298018,359,0
360,43.99473992,360,0
361,44.98266564,361,0
362,45.97623665,362,0
363,46.97976994,363,0
364,47.90925031,364,0
365,48.91477605,365,0
366,49.95516976,366,0
367,50.9689974,367,0
368,51.94297593,368,0
369,53.08099995,369,0
370,54.18913713,370,0
371,55.29661017,371,0
372,56.46252856,372,0
373,57.44248446,373,0
374,58.51010839,374,0
375,59.68565698,375,0
376,60.88644333,376,0
377,61.94377291,377,0
378,63.08046863,378,0
379,64.62196483,379,0
380,65.97783061,380,0
381,66.79739387,381,0
382,68.04234632,382,0
383,69.56956325,383,0
384,70.93041018,384,0
385,72.32313639,385,0
386,73.71885128,386,0
387,75.12718506,387,0
388,76.60459062,388,0
389,78.16335476,389,0
390,79.62747729,390,0
391,81.05507146,391,0
392,82.50757133,392,0
393,83.97036555,393,0
394,85.3982918,394,0
395,86.77541045,395,0
396,88.22957069,396,0
397,89.65517241,397,0
398,91.01336273,398,0
399,92.26362839,399,0
400,93.47603741,400,0
401,94.66686148,401,0
402,95.73714202,402,0
403,96.68953563,403,0
404,97.59942352,404,0
405,98.41566601,405,0
406,98.98584028,406,0
407,99.43580309,407,0
408,99.83429414,408,0
409,100,409,0
410,99.88609798,410,0
411,99.6118033,411,0
412,99.18276128,412,0
413,98.53488125,413,0
414,97.60274428,414,0
415,96.40229,415,0
416,95.0162053,416,0
417,93.36014293,417,0
418,91.38329526,418,0
419,89.19890016,419,0
420,86.89827852,420,0
421,84.4279661,421,0
422,81.50071728,422,0
423,78.51303066,423,0
424,75.31314755,424,0
425,72.04153605,425,12.39139858
426,68.41227884,426,14.91936708
427,64.74848573,427,16.79895803
428,61.05115297,428,20.24768988
429,57.35913341,429,23.95091979
430,53.51070613,430,28.1194386
431,49.78448276,431,32.35520033
432,46.1655199,432,35.9664065
433,42.54257213,433,40.87328248
434,38.96213007,434,46.02386826
435,35.51883534,435,51.69219266
436,32.2601748,436,58.11433496
437,29.1964428,437,62.00686078
438,26.15296743,438,68.34417537
439,23.40902449,439,73.31250151
440,20.92708942,440,78.71494035
441,18.64772063,441,83.97615502
442,16.53206525,442,87.34489318
443,14.61100632,443,91.0653533
444,12.88587216,444,94.5128267
445,11.31316083,445,96.64794776
446,9.864645874,446,98.67035584
447,8.629655704,447,98.8986449
448,7.605865788,448,99.78538063
449,6.612958929,449,100
450,5.724655969,450,99.37611693
451,5.016006057,451,98.42595354
452,4.436533659,452,97.81920916
453,3.827174433,453,95.56887158
454,3.332713458,454,93.12743862
455,2.966433771,455,91.70188724
456,2.614765422,456,90.25777898
457,2.358070772,457,88.15274045
458,2.073481749,458,85.95401195
459,1.816122948,459,83.35715255
460,1.686945433,460,78.7943681
461,1.405013017,461,76.66961412
462,1.265541151,462,75.04457116
463,1.233661867,463,72.31321928
464,1.114114553,464,70.34333908
465,1.039397482,465,68.05576789
466,0.920514319,466,66.0499458
467,0.803291536,467,64.31021903
468,0.85044631,468,61.90388237
469,0.746838638,469,60.36120354
470,0.668136656,470,58.62402687
471,0.629947931,471,57.03021839
472,0.655849849,472,55.44738288
473,0.534642155,473,53.69381331
474,0.550913873,474,52.08062559
475,0.528000638,475,51.16418689
476,0.493464747,476,49.41012457
477,0.460589235,477,47.95847906
478,0.418083524,478,46.27438297
479,0.413102386,479,45.142133
480,0.432694862,480,43.58300797
481,0.351004197,481,42.08045581
482,0.297207906,482,40.8470285
483,0.313479624,483,39.34038478
484,0.329751342,484,38.26610594
485,0.269313533,485,37.1762565
486,0.252709739,486,35.34844607
487,0.275622974,487,34.16444055
488,0.280604112,488,33.09822168
489,0.231456883,489,32.14594092
490,0.207215345,490,30.61683184
491,0.236438021,491,29.47151148
492,0.223487062,492,28.302727
493,0.169690771,493,26.89053565
494,0.143456777,494,25.81064048
495,0.138475639,495,24.83427139
496,0.18264173,496,23.73758047
497,0.145117156,497,22.70568219
498,0.117222783,498,21.72970594
499,0.094641624,499,20.83202386
500,0.105932203,500,19.92829929
501,0.149766219,501,18.87579501
502,0.120543542,502,18.21741491
503,0.13681526,503,17.58750603
504,0.091320865,504,16.75351463
505,0.079698209,505,15.98664796
506,0.095969927,506,15.24668779
507,0.113902024,507,14.68271346
508,0.084679348,508,14.02609117
509,0.063426492,509,13.39259925
510,0.042173636,510,12.94014021
511,0.095969927,511,12.5916775
512,0.047154774,512,11.90099513
513,0.063426492,513,11.54149616
514,0.084679348,514,11.06335327
515,0.099290686,515,10.72774871
516,0.058445354,516,10.23597863
517,0.027562297,517,9.749265581
518,0.019592476,518,9.415159988
519,0.048815153,519,9.059389706
520,0.08932841,520,8.693053416
521,0.035864194,521,8.300159369
522,0.060105733,522,8.137524404
523,0.060105733,523,7.786100378
524,0.019592476,524,7.446335996
525,0.0096302,525,7.132560916
526,0.022913235,526,6.823660603
527,0.038852877,527,6.647103389
528,0.040513256,528,6.255864364
529,0.022581159,529,6.059988712
530,-0.006641517,530,5.889782757
531,0.017932097,531,5.540000435
532,0.003320759,532,5.404285696
533,0.0096302,533,5.140514179
534,0.043834015,534,4.880416421
535,0.050475533,535,4.673908177
536,0.021252856,536,4.497712185
537,0.007969821,537,4.388617624
538,0.007969821,538,4.176309103
539,0.007969821,539,3.989373983
540,-0.004981138,540,3.80837522
541,-0.004981138,541,3.694413391
542,0.022581159,542,3.458529853
543,0.021252856,543,3.342072381
544,0.025901918,544,3.171782366
545,-0.016271718,545,3.116531172
546,0.007969821,546,2.963112438
547,0.016271718,547,2.807820411
548,-0.007969821,548,2.675612762
549,0.034203815,549,2.562810946
550,0.022913235,550,2.45940056
551,-0.004981138,551,2.384232711
552,0.01129058,552,2.200925364
553,-0.004981138,553,2.262822865
554,0.024573615,554,2.079076898
555,0.037524574,555,1.977847962
556,0.01129058,556,1.909205736
557,-0.003320759,557,1.870566563
558,0.063758568,558,1.720614241
559,-0.037524574,559,1.662415364
560,0.052135912,560,1.663317158
561,-0.017932097,561,1.583070321
562,0.055456671,562,1.490153949
563,0.017932097,563,1.412976415
564,0.01129058,564,1.355346101
565,-0.056784974,565,1.375654352
566,0.048815153,566,1.259711552
567,0.022913235,567,1.211751278
568,-0.094309548,568,1.250987416
569,0.012950959,569,1.111447544
570,0.029222677,570,1.003152408
571,0,571,0.958864436
572,-0.088996334,572,0.878114892
573,0.019592476,573,0.91949513
574,0.029222677,574,0.857311268
575,-0.0096302,575,0.815609607
576,-0.05313214,576,0.80660145
577,0.004981138,577,0.773579968
578,0.01129058,578,0.719739622
579,-0.044830243,579,0.680868394
580,-0.075381223,580,0.703273357
581,0.015939642,581,0.643493376
582,0.043169863,582,0.657386127
583,-0.004649062,583,0.675188957
584,-0.046158546,584,0.583963084
585,0.044498167,585,0.525763791
586,0.001660379,586,0.531345225
587,0.006309442,587,0.535419942
588,-0.149434143,588,0.447955115
589,0.065086871,589,0.475048146
590,-0.039517029,590,0.482470049
591,0.060437809,591,0.416815457
592,-0.190279475,592,0.495032894
593,0.1142341,593,0.396674888
594,-0.076045375,594,0.402257571
595,0.060105733,595,0.37730656
596,-0.11589448,596,0.373723886
597,-0.0096302,597,0.335909987
598,-0.038188725,598,0.369420937
599,0.017600021,599,0.321615679
600,0.006309442,600,0.328171864
601,-0.039517029,601,0
602,0.042837788,602,0
603,-0.068075554,603,0
604,0.082354816,604,0
605,-0.06674725,605,0
606,0.015939642,606,0
607,-0.060437809,607,0
608,-0.006309442,608,0
609,0.006309442,609,0
610,-0.06674725,610,0
611,0.0096302,611,0
612,-0.061766112,612,0
613,0.041177408,613,0
614,-0.046158546,614,0
615,-0.010958504,615,0
616,-0.018928325,616,0
617,-0.069735933,617,0
618,-0.010958504,618,0
619,-0.084015196,619,0
620,0.049147229,620,0
621,-0.063426492,621,0
622,-0.039517029,622,0
623,0.014279263,623,0
624,-0.118883162,624,0
625,0.018928325,625,0
626,-0.063426492,626,0
627,0.031547208,627,0
628,0.007969821,628,0
629,-0.110913341,629,0
630,0.020588704,630,0
631,-0.099954838,631,0
632,-0.04748685,632,0
633,0.023909463,633,0
634,-0.090324637,634,0
635,0.069735933,635,0
636,-0.058777429,636,0
637,-0.117222783,637,0
638,0.023909463,638,0
639,-0.082354816,639,0
640,-0.058445354,640,0
641,0.003320759,641,0
642,-0.101283141,642,0
643,0.012618883,643,0
644,-0.068075554,644,0
645,-0.112241645,645,0
646,0.025237766,646,0
647,-0.082354816,647,0
648,-0.053796291,648,0
649,-0.0096302,649,0
650,-0.069403857,650,0
651,0.044166091,651,0
652,0.004649062,652,0
653,-0.077373678,653,0
654,0.014279263,654,0
655,-0.018928325,655,0
656,-0.064754795,656,0
657,0.010958504,657,0
658,-0.099622762,658,0
659,-0.079034058,659,0
660,0.017267945,660,0
661,-0.088332182,661,0
662,-0.050475533,662,0
663,0.010958504,663,0
664,-0.107260507,664,0
665,-0.053464216,665,0
666,-0.004649062,666,0
667,-0.071064237,667,0
668,-0.033207587,668,0
669,-0.010958504,669,0
670,-0.102279369,670,0
671,-0.053464216,671,0
672,0.010958504,672,0
673,-0.105600128,673,0
674,-0.037856649,674,0
675,0.058113278,675,0
676,-0.061434036,676,0
677,-0.044166091,677,0
678,-0.009298124,678,0
679,-0.088000106,679,0
680,-0.047154774,680,0
681,0.028226449,681,0
682,-0.040845332,682,0
683,-0.055124595,683,0
684,-0.032875511,684,0
685,-0.004649062,685,0
686,-0.061101961,686,0
687,-0.064422719,687,0
688,-0.034535891,688,0
689,-0.058113278,689,0
690,-0.047154774,690,0
691,-0.040845332,691,0
692,-0.02656607,692,0
693,-0.042173636,693,0
694,-0.059441581,694,0
695,-0.054792519,695,0
696,-0.076709527,696,0
697,-0.043834015,697,0
698,-0.012618883,698,0
699,-0.034535891,699,0
700,-0.042173636,700,0
701,0,701,0
702,0,702,0
703,0,703,0
704,0,704,0
705,0,705,0
706,0,706,0
707,0,707,0
708,0,708,0
709,0,709,0
710,0,710,0
711,0,711,0
712,0,712,0
713,0,713,0
714,0,714,0
715,0,715,0
716,0,716,0
717,0,717,0
718,0,718,0
719,0,719,0
720,0,720,0
721,0,721,0
722,0,722,0
723,0,723,0
724,0,724,0
725,0,725,0
726,0,726,0
727,0,727,0
728,0,728,0
729,0,729,0
730,0,730,0
731,0,731,0
732,0,732,0
733,0,733,0
734,0,734,0
735,0,735,0
736,0,736,0
737,0,737,0
738,0,738,0
739,0,739,0
740,0,740,0
741,0,741,0
742,0,742,0
743,0,743,0
744,0,744,0
745,0,745,0
746,0,746,0
747,0,747,0
748,0,748,0
749,0,749,0
750,0,750,0
751,0,751,0
752,0,752,0
753,0,753,0
754,0,754,0
755,0,755,0
756,0,756,0
757,0,757,0
758,0,758,0
759,0,759,0
760,0,760,0
761,0,761,0
762,0,762,0
763,0,763,0
764,0,764,0
765,0,765,0
766,0,766,0
767,0,767,0
768,0,768,0
769,0,769,0
770,0,770,0
771,0,771,0
772,0,772,0
773,0,773,0
774,0,774,0
775,0,775,0
776,0,776,0
777,0,777,0
778,0,778,0
779,0,779,0
780,0,780,0
781,0,781,0
782,0,782,0
783,0,783,0
784,0,784,0
785,0,785,0
786,0,786,0
787,0,787,0
788,0,788,0
789,0,789,0
790,0,790,0
791,0,791,0
792,0,792,0
793,0,793,0
794,0,794,0
795,0,795,0
796,0,796,0
797,0,797,0
798,0,798,0
799,0,799,0
800,0,800,0
801,0,801,0
802,0,802,0
803,0,803,0
804,0,804,0
805,0,805,0
806,0,806,0
807,0,807,0
808,0,808,0
809,0,809,0
810,0,810,0
811,0,811,0
812,0,812,0
813,0,813,0
814,0,814,0
815,0,815,0
816,0,816,0
817,0,817,0
818,0,818,0
819,0,819,0
820,0,820,0
821,0,821,0
822,0,822,0
823,0,823,0
824,0,824,0
825,0,825,0
826,0,826,0
827,0,827,0
828,0,828,0
829,0,829,0
830,0,830,0
831,0,831,0
832,0,832,0
833,0,833,0
834,0,834,0
835,0,835,0
836,0,836,0
837,0,837,0
838,0,838,0
839,0,839,0
840,0,840,0
841,0,841,0
842,0,842,0
843,0,843,0
844,0,844,0
845,0,845,0
846,0,846,0
847,0,847,0
848,0,848,0
849,0,849,0
850,0,850,0
851,0,851,0
852,0,852,0
853,0,853,0
854,0,854,0
855,0,855,0
856,0,856,0
857,0,857,0
858,0,858,0
859,0,859,0
860,0,860,0
861,0,861,0
862,0,862,0
863,0,863,0
864,0,864,0
865,0,865,0
866,0,866,0
867,0,867,0
868,0,868,0
869,0,869,0
870,0,870,0
871,0,871,0
872,0,872,0
873,0,873,0
874,0,874,0
875,0,875,0
876,0,876,0
877,0,877,0
878,0,878,0
879,0,879,0
880,0,880,0
881,0,881,0
882,0,882,0
883,0,883,0
884,0,884,0
885,0,885,0
886,0,886,0
887,0,887,0
888,0,888,0
889,0,889,0
890,0,890,0
891,0,891,0
892,0,892,0
893,0,893,0
894,0,894,0
895,0,895,0
896,0,896,0
897,0,897,0
898,0,898,0
899,0,899,0
900,0,900,0
901,0,901,0
902,0,902,0
903,0,903,0
904,0,904,0
905,0,905,0
906,0,906,0
907,0,907,0
908,0,908,0
909,0,909,0
910,0,910,0
911,0,911,0
912,0,912,0
913,0,913,0
914,0,914,0
915,0,915,0
916,0,916,0
917,0,917,0
918,0,918,0
919,0,919,0
920,0,920,0
921,0,921,0
922,0,922,0
923,0,923,0
924,0,924,0
925,0,925,0
926,0,926,0
927,0,927,0
928,0,928,0
929,0,929,0
930,0,930,0
931,0,931,0
932,0,932,0
933,0,933,0
934,0,934,0
935,0,935,0
936,0,936,0
937,0,937,0
938,0,938,0
939,0,939,0
940,0,940,0
941,0,941,0
942,0,942,0
943,0,943,0
944,0,944,0
945,0,945,0
946,0,946,0
947,0,947,0
948,0,948,0
949,0,949,0
950,0,950,0
951,0,951,0
952,0,952,0
953,0,953,0
954,0,954,0
955,0,955,0
956,0,956,0
957,0,957,0
958,0,958,0
959,0,959,0
960,0,960,0
961,0,961,0
962,0,962,0
963,0,963,0
964,0,964,0
965,0,965,0
966,0,966,0
967,0,967,0
968,0,968,0
969,0,969,0
970,0,970,0
971,0,971,0
972,0,972,0
973,0,973,0
974,0,974,0
975,0,975,0
976,0,976,0
977,0,977,0
978,0,978,0
979,0,979,0
980,0,980,0
981,0,981,0
982,0,982,0
983,0,983,0
984,0,984,0
985,0,985,0
986,0,986,0
987,0,987,0
988,0,988,0
989,0,989,0
990,0,990,0
991,0,991,0
992,0,992,0
993,0,993,0
994,0,994,0
995,0,995,0
996,0,996,0
997,0,997,0
998,0,998,0
999,0,999,0
